t	x(t)	y(t)
0.0	40.0	60.0
0.06578947368421052	40.03276412019767	60.03100927148755
0.13157894736842105	40.065267007106485	60.058247612266
0.19736842105263158	40.097508660726426	60.08171502233534
0.2631578947368421	40.1294890810575	60.101411501695566
0.3289473684210526	40.16120826809972	60.1173370503467
0.3947368421052631	40.19266622185307	60.129491668288715
0.4605263157894736	40.22386294231755	60.13787535552163
0.5263157894736842	40.25479842949317	60.142488112045434
0.5921052631578947	40.28547268337992	60.14332993786013
0.6578947368421052	40.31588570397781	60.140400832965724
0.7236842105263157	40.346037491286836	60.13370079736221
0.7894736842105262	40.37592804530699	60.123229831049585
0.8552631578947367	40.405557366038295	60.108987934027866
0.9210526315789472	40.43492545348072	60.09097510629703
0.9868421052631577	40.46403230763429	60.06919134785709
1.0526315789473684	40.49287792849899	60.043636658708046
1.118421052631579	40.521462316074825	60.01431103884989
1.1842105263157896	40.5497854703618	59.98121448828263
1.2500000000000002	40.5778473913599	59.944347007006265
1.3157894736842108	40.60564807906914	59.90370859502079
1.3815789473684215	40.63318753348952	59.85929925232622
1.447368421052632	40.66046575462103	59.81111897892253
1.5131578947368427	40.68748274246368	59.75916777480974
1.5789473684210533	40.71423849701746	59.703445639987834
1.644736842105264	40.74073301828238	59.643952574456826
1.7105263157894746	40.76696630625843	59.58068857821672
1.7763157894736852	40.79293836094562	59.5136536512675
1.8421052631578958	40.81864918234394	59.44284779360917
1.9078947368421064	40.8440987704534	59.368271005241745
1.973684210526317	40.86928712527399	59.289923286165205
2.0394736842105274	40.89421424680572	59.20780463637956
2.105263157894738	40.91888013504858	59.121915055884806
2.1710526315789487	40.94328479000258	59.032254544680946
2.2368421052631593	40.967428211667716	58.938823102767984
2.30263157894737	40.991310400043986	58.84162073014591
2.3684210526315805	41.01493135513139	58.74064742681473
2.434210526315791	41.03829107692993	58.63590319277445
2.5000000000000018	41.061389565439605	58.52738802802506
2.5657894736842124	41.08422682066042	58.415101932566564
2.631578947368423	41.10680284259236	58.299044906398954
2.6973684210526336	41.12911763123544	58.17921694952224
2.7631578947368443	41.15117118658966	58.05561806193643
2.828947368421055	41.172963508655	57.928248243641505
2.8947368421052655	41.194494597431486	57.79710749463747
2.960526315789476	41.21582469894876	57.66219581492434
3.0263157894736867	41.23734545894781	57.523513204502095
3.0921052631578974	41.25912745223573	57.38105966337074
3.157894736842108	41.281170678812515	57.23483519153029
3.2236842105263186	41.30347513867816	57.08483978898072
3.289473684210529	41.32604083183268	56.93107345572206
3.35526315789474	41.34886775827606	56.773536191754275
3.4210526315789505	41.3719559180083	56.61222799707739
3.486842105263161	41.395305311029404	56.447148871691404
3.5526315789473717	41.41891593733938	56.27829881559631
3.6184210526315823	41.44278779693822	56.10567782879211
3.684210526315793	41.46692088982592	55.9292859112788
3.7500000000000036	41.491315216002484	55.74912306305637
3.815789473684214	41.51597077546793	55.565189284124855
3.881578947368425	41.54088756822222	55.37748457448423
3.9473684210526354	41.56606559426538	55.18600893413449
4.013157894736846	41.591504853597414	54.990762363075646
4.078947368421057	41.617205346218306	54.7917448613077
4.144736842105267	41.64316707212806	54.58895642883064
4.210526315789478	41.66939003132668	54.38239706564448
4.2763157894736885	41.695874223814165	54.172066771749215
4.342105263157899	41.72261964959052	53.957965547144845
4.40789473684211	41.749626308655735	53.74009339183136
4.47368421052632	41.77689420100981	53.51845030580876
4.539473684210531	41.80442332665276	53.29303628907708
4.605263157894742	41.83221368558457	53.06385134163627
4.671052631578952	41.86026527780525	52.83089546348637
4.736842105263163	41.888578103314785	52.59416865462735
4.8026315789473735	41.91715216211319	52.353670915059226
4.868421052631584	41.945987454200456	52.109402244782004
4.934210526315795	41.975083979576596	51.861362643795665
5.000000000000005	42.004441738241596	51.609552112100225
5.065789473684216	42.03406073019546	51.35397064969568
5.131578947368427	42.06394095543819	51.094618256582024
5.197368421052637	42.09408241396979	50.831494932759256
5.263157894736848	42.12448510579024	50.5646006782274
5.328947368421058	42.155149030899565	50.29393549298642
5.394736842105269	42.186074189297756	50.01949937703635
5.46052631578948	42.21726058098481	49.741292330377156
5.52631578947369	42.248708205960725	49.45931435300886
5.592105263157901	42.2804170642255	49.17356544493146
5.6578947368421115	42.312387155779156	48.88404560614495
5.723684210526322	42.34461848062166	48.590754836649346
5.789473684210533	42.37711103875304	48.293693136444624
5.855263157894743	42.409864830173284	47.99286050553079
5.921052631578954	42.44287985488239	47.68825694390787
5.986842105263165	42.47615611288036	47.379882451575824
6.052631578947375	42.509693604167204	47.06773702853467
6.118421052631586	42.54349232874291	46.751820674784426
6.1842105263157965	42.57755228660747	46.43213339032506
6.250000000000007	42.6118734777609	46.10867517515659
6.315789473684218	42.64645590220319	45.781446029279024
6.381578947368428	42.68129955993436	45.45044595269235
6.447368421052639	42.71640445095438	45.11567494539656
6.51315789473685	42.75177057526327	44.77713300739167
6.57894736842106	42.787397932861026	44.434820138677665
6.644736842105271	42.82328652374765	44.08873633925457
6.710526315789481	42.85943634792313	43.73888160912236
6.776315789473692	42.89584740538748	43.38525594828104
6.842105263157903	42.932519696140695	43.027859356730616
6.907894736842113	42.96945322018277	42.668282441892366
6.973684210526324	43.006647977513715	42.31201311128733
7.0394736842105345	43.04410396813353	41.9595147113914
7.105263157894745	43.081821192042206	41.61078724220458
7.171052631578956	43.119799649239745	41.26583070372686
7.236842105263166	43.158039339726145	40.92464509595826
7.302631578947377	43.19654026350141	40.587230418898756
7.368421052631588	43.235302420565546	40.253586672548366
7.434210526315798	43.27432581091854	39.92371385690708
7.500000000000009	43.3136104345604	39.59761197197489
7.5657894736842195	43.35315629149113	39.27528101775182
7.63157894736843	43.39296338171072	38.956720994237855
7.697368421052641	43.43303170521918	38.64193190143299
7.763157894736851	43.4733612620165	38.330913739337234
7.828947368421062	43.51395205210269	38.02366650795059
7.894736842105273	43.55480407547774	37.72019020727304
7.960526315789483	43.59591733214165	37.42048483730461
8.026315789473694	43.63729182209443	37.12455039804528
8.092105263157904	43.67892754533608	36.83238688949506
8.157894736842115	43.720824501866595	36.54399431165394
8.223684210526326	43.76298269168597	36.259372664521926
8.289473684210536	43.80540211479421	35.97852194809903
8.355263157894747	43.848082771191315	35.701442162385234
8.421052631578958	43.891024660877285	35.42813330738055
8.486842105263168	43.93422778385212	35.15859538308496
8.552631578947379	43.97769214011582	34.89282838949849
8.61842105263159	44.021417729668386	34.63083232662111
8.6842105263158	44.06540455250981	34.37260719445285
8.75000000000001	44.109652608640104	34.11815299299369
8.815789473684221	44.154161898059265	33.86746972224364
8.881578947368432	44.198932420767285	33.620557382202705
8.947368421052643	44.24396417676417	33.377415972870864
9.013157894736853	44.28925716604993	33.13804549424813
9.078947368421064	44.334811388624544	32.90244594633451
9.144736842105274	44.380626844488035	32.67061732912999
9.210526315789485	44.426703533640385	32.442559642634585
9.276315789473696	44.473041456081596	32.218272886848276
9.342105263157906	44.519640611811674	31.997757061771082
9.407894736842117	44.56650100083061	31.781012167402988
9.473684210526327	44.61362262313842	31.568038203744003
9.539473684210538	44.66100547873509	31.358835170794126
9.605263157894749	44.708649567620625	31.153403068553356
9.67105263157896	44.75655488979503	30.95174189702169
9.73684210526317	44.804721445258295	30.75385165619913
9.80263157894738	44.853149234010424	30.55973234608568
9.868421052631591	44.90183825605142	30.369383966681337
9.934210526315802	44.95078851138128	30.182806517986098
10.0	45.0	30.0
10.074074074074074	45.05600943768849	29.79569060686592
10.148148148148149	45.112926639642836	29.590169834871098
10.222222222222223	45.17075160586304	29.383437684015526
10.296296296296298	45.22948433634911	29.17549415429921
10.370370370370372	45.28912483110104	28.96633924572214
10.444444444444446	45.349673090118834	28.755972958284325
10.51851851851852	45.41112911340249	28.54439529198577
10.592592592592595	45.473492900951996	28.33160624682646
10.66666666666667	45.53676445276737	28.117605822806404
10.740740740740744	45.60094376884861	27.902394019925605
10.814814814814818	45.66603084919571	27.68597083818406
10.888888888888893	45.732025693808666	27.468336277581763
10.962962962962967	45.798928302687486	27.249490338118722
11.037037037037042	45.86673867583216	27.029433019794933
11.111111111111116	45.9354568132427	26.8081643226104
11.18518518518519	46.005082714919105	26.585684246565116
11.259259259259265	46.07561638086137	26.361992791659084
11.33333333333334	46.147057811069494	26.13708995789231
11.407407407407414	46.219407005543474	25.910975745264786
11.481481481481488	46.29266396428333	25.683650153776515
11.555555555555562	46.366828687289036	25.455113183427496
11.629629629629637	46.441901174560606	25.225364834217732
11.703703703703711	46.517881426098036	24.994405106147223
11.777777777777786	46.59476944190133	24.76223399921596
11.85185185185186	46.67256522197047	24.528851513423955
11.925925925925934	46.751268766305486	24.294257648771207
12.000000000000009	46.83088007490636	24.058452405257707
12.074074074074083	46.911399147773096	23.82143578288346
12.148148148148158	46.99282598490569	23.58320778164847
12.222222222222232	47.07516058630414	23.34439263653422
12.296296296296306	47.15840295196846	23.106692434475054
12.370370370370381	47.24255308189864	22.870203611276633
12.444444444444455	47.32761097609468	22.63492616693896
12.51851851851853	47.41357663455659	22.40086010146203
12.592592592592604	47.50045005728435	22.168005414845847
12.666666666666679	47.58823124427797	21.936362107090414
12.740740740740753	47.676920195537456	21.70593017819573
12.814814814814827	47.7665169110628	21.47670962816179
12.888888888888902	47.85702139085401	21.248700456988594
12.962962962962976	47.94843363491107	21.021902664676148
13.03703703703705	48.040753643234	20.79631625122445
13.111111111111125	48.13398141582279	20.571941216633498
13.1851851851852	48.228116952677446	20.34877756090329
13.259259259259274	48.32316025379796	20.126825284033835
13.333333333333348	48.41911131918433	19.906084386025125
13.407407407407423	48.51597014883656	19.68655486687716
13.481481481481497	48.613736742754654	19.46823672658994
13.555555555555571	48.71241110093861	19.25112996516347
13.629629629629646	48.81199322338843	19.03523458259775
13.70370370370372	48.912483110104105	18.82055057889277
13.777777777777795	49.013880761085645	18.607077954048542
13.851851851851869	49.116186176333045	18.394816708065058
13.925925925925943	49.219399355846306	18.183766840942326
14.000000000000018	49.32352029962543	17.973928352680336
14.074074074074092	49.42854900767041	17.765301243279094
14.148148148148167	49.53398827504731	17.5578855127386
14.222222222222241	49.63858110325073	17.351681161058853
14.296296296296315	49.7422661671883	17.14668818823985
14.37037037037039	49.84504346686	16.942906594281595
14.444444444444464	49.94691300226584	16.74033637918409
14.518518518518539	50.04787477340582	16.538977542947332
14.592592592592613	50.14792878027994	16.338830085571317
14.666666666666687	50.2470750228882	16.13989400705605
14.740740740740762	50.3453135012306	15.942169307401532
14.814814814814836	50.44264421530714	15.745655986607762
14.88888888888891	50.539067165117814	15.550354044674735
14.962962962962985	50.634582350662626	15.356263481602458
15.03703703703706	50.729189771941584	15.163384297390927
15.111111111111134	50.822889428954674	14.971716492040143
15.185185185185208	50.9156813217019	14.781260065550105
15.259259259259283	51.00756545018327	14.592015017920815
15.333333333333357	51.098541814398786	14.403981349152271
15.407407407407431	51.18861041434844	14.217159059244477
15.481481481481506	51.277771250032224	14.031548148197427
15.55555555555558	51.366024321450155	13.847148616011124
15.629629629629655	51.45336962860222	13.66396046268557
15.703703703703729	51.53980717148842	13.481983688220762
15.777777777777803	51.62533695010876	13.3012182926167
15.851851851851878	51.70995896446325	13.121664275873384
15.925925925925952	51.793673214551866	12.943321637990817
16.000000000000025	51.876479700374624	12.766190378969
16.074074074074097	51.95837842193152	12.590270498807932
16.14814814814817	52.03936937922256	12.41556199750761
16.222222222222243	52.11945257224774	12.242064875068033
16.296296296296315	52.19862800100705	12.069779131489206
16.370370370370388	52.276895665500504	11.898704766771123
16.44444444444446	52.354255565728096	11.728841780913788
16.518518518518533	52.43070770168982	11.5601901739172
16.592592592592606	52.506252073385696	11.39274994578136
16.66666666666668	52.580888680815704	11.226521096506264
16.74074074074075	52.65461752397985	11.061503626091918
16.814814814814824	52.72743860287814	10.897697534538318
16.888888888888896	52.79935191751056	10.735102821845464
16.96296296296297	52.87035746787713	10.573719488013358
17.03703703703704	52.94045525397784	10.413547533041998
17.111111111111114	53.00964527581268	10.254586956931385
17.185185185185187	53.07792753338166	10.09683775968152
17.25925925925926	53.14530202668478	9.940299941292402
17.333333333333332	53.21176875572204	9.784973501764028
17.407407407407405	53.27732772049344	9.630858441096404
17.481481481481477	53.34197892099898	9.477954759289526
17.55555555555555	53.40572235723866	9.326262456343395
17.629629629629623	53.468558029212474	9.17578153225801
17.703703703703695	53.53048593692043	9.026511987033373
17.777777777777768	53.59150608036252	8.878453820669483
17.85185185185184	53.65161845953876	8.73160703316634
17.925925925925913	53.71082307444913	8.585971624523943
17.999999999999986	53.76911992509364	8.441547594742293
18.07407407407406	53.82650901147229	8.29833494382139
18.14814814814813	53.88299033358508	8.156333671761233
18.222222222222204	53.938563891432004	8.015543778561824
18.296296296296276	53.99322968501308	7.875965264223162
18.37037037037035	54.04698771432828	7.7375981287452475
18.44444444444442	54.099837979377625	7.600442372128079
18.518518518518494	54.15178048016111	7.464497994371658
18.592592592592567	54.20281521667873	7.329764995475983
18.66666666666664	54.25294218893049	7.196243375441056
18.740740740740712	54.3021613969164	7.0639331342668745
18.814814814814785	54.350472840636435	6.932834271953441
18.888888888888857	54.39787652009061	6.802946788500754
18.96296296296293	54.44437243527893	6.674270683908814
19.037037037037003	54.489960586201384	6.546805958177621
19.111111111111075	54.534640972857986	6.420552611307175
19.185185185185148	54.57841359524872	6.295510643297476
19.25925925925922	54.62127845337359	6.171680054148523
19.333333333333293	54.6632355472326	6.049060843860318
19.407407407407366	54.70428487682575	5.9276530124328595
19.48148148148144	54.74442644215304	5.807456559866148
19.55555555555551	54.783660243214484	5.688471486160183
19.629629629629584	54.82198628001005	5.570697791314966
19.703703703703656	54.85940455253976	5.454135475330494
19.77777777777773	54.8959150608036	5.33878453820677
19.8518518518518	54.93151780480159	5.224644979943793
19.925925925925874	54.96621278453371	5.111716800541563
20.0	55.0	5.0
20.4	55.17035019380136	4.428142135623733
20.799999999999997	55.32140077520545	3.9125685424949275
21.199999999999996	55.45315174421225	3.453279220613583
21.599999999999994	55.565603100821775	3.0502741699797005
21.999999999999993	55.65875484503403	2.7035533905932794
22.39999999999999	55.732606976849006	2.41311688245432
22.79999999999999	55.787159496266696	2.1789646455628215
23.19999999999999	55.82241240328712	2.0010966799187853
23.599999999999987	55.838365697910255	1.8795129855222101
23.999999999999986	55.83501938013612	1.8142135623730966
24.399999999999984	55.812373449964696	1.8051984104714442
24.799999999999983	55.770427907396005	1.852467529817254
25.19999999999998	55.70918275243004	1.9560209204105252
25.59999999999998	55.62863798506679	2.094801589528549
25.99999999999998	55.52879360530626	2.185786437626901
26.399999999999977	55.40964961314846	2.220487014477792
26.799999999999976	55.27120600859338	2.198903320081222
27.199999999999974	55.11346279164103	2.1210353544371903
27.599999999999973	54.93641996229139	1.9868831175456967
27.99999999999997	54.74124515496599	1.7964466094067417
28.39999999999997	54.55439689917823	1.5497258300203254
28.79999999999997	54.38684825578777	1.2467207793864472
29.199999999999967	54.23859922479457	0.8874314575051079
29.599999999999966	54.10964980619865	0.4718578643763069
30.0	54.0	0.0
30.098039215686274	53.97533467570273	-0.12477014044844548
30.19607843137255	53.950358310654075	-0.2539825225780965
30.294117647058822	53.925070904854024	-0.3876371463889531
30.392156862745097	53.89947245830258	-0.5257340118810152
30.49019607843137	53.873562970999735	-0.6682731190542829
30.588235294117645	53.847342442945504	-0.8152544679087561
30.68627450980392	53.82081087413987	-0.9666780584444348
30.784313725490193	53.79396826458285	-1.1225438906613192
30.882352941176467	53.76681461427444	-1.282851964559409
30.98039215686274	53.73934992321463	-1.4476022801387043
31.078431372549016	53.71157419140343	-1.6167948373992054
31.17647058823529	53.683487418840826	-1.7904296363409118
31.274509803921564	53.65508960552684	-1.9685066769638238
31.37254901960784	53.62638075146146	-2.1510259592679413
31.470588235294112	53.597360856644684	-2.3379874832532646
31.568627450980387	53.568029921076516	-2.529391248919793
31.66666666666666	53.53838794475695	-2.7252372562675276
31.764705882352935	53.50843492768599	-2.9255255052964673
31.86274509803921	53.47817086986364	-3.1302559960066128
31.960784313725483	53.4475957712899	-3.3394287283979636
32.05882352941176	53.41670963196475	-3.5530437024705277
32.15686274509804	53.38551245188822	-3.771100918224298
32.254901960784316	53.354004231060294	-3.9936003756592737
32.352941176470594	53.32218496948097	-4.220542074775456
32.45098039215687	53.29005466715026	-4.451926015572844
32.54901960784315	53.25761332406815	-4.687752198051437
32.64705882352943	53.22486094023465	-4.928020622211236
32.745098039215705	53.19179751564975	-5.172731288052242
32.84313725490198	53.15842305031346	-5.421884195574453
32.94117647058826	53.12473754422578	-5.6754793447778695
33.03921568627454	53.0907409973867	-5.933516735662494
33.137254901960816	53.05643340979623	-6.195996368228322
33.23529411764709	53.02181478145437	-6.462918242475356
33.33333333333337	52.98688511236111	-6.734282358403597
33.43137254901965	52.95164440251646	-7.010088716013044
33.52941176470593	52.916092651920415	-7.290337315303695
33.627450980392204	52.880229860572975	-7.575028156275554
33.72549019607848	52.84405602847414	-7.864161238928618
33.82352941176476	52.80757115562392	-8.157736563262887
33.92156862745104	52.77077524202229	-8.455754129278363
34.019607843137315	52.733668287669275	-8.758213936975045
34.11764705882359	52.69625029256487	-9.065115986352932
34.21568627450987	52.65852125670907	-9.376121491116805
34.31372549019615	52.620481180101876	-9.685012237310474
34.411764705882426	52.58213006274329	-9.989460741822938
34.509803921568704	52.5434679046333	-10.289467004654199
34.60784313725498	52.50449470577193	-10.585031025804252
34.70588235294126	52.46521046615916	-10.876152805273097
34.80392156862754	52.425615185794996	-11.162832343060739
34.901960784313815	52.38570886467944	-11.445069639167174
35.00000000000009	52.34549150281249	-11.722864693592404
35.09803921568637	52.30496310019415	-11.996217506336428
